wavelength_shift_nm,spec_input_norm,spec_kerr_norm,spec_raman_norm
-820.6210444426857,3.5618907901467675e-24,2.6601422161160725e-24,2.924126526796933e-24
-817.4154934878316,3.562512221788484e-24,3.002202823852689e-24,3.126328942164737e-24
-814.2099425329773,3.5625122217865456e-24,4.033676495156443e-24,4.021992425537061e-24
-811.0043915781231,3.5646876593828955e-24,4.257224244552977e-24,4.099628072857387e-24
-807.7988406232688,3.565931064706228e-24,2.472535810306421e-24,2.5333564638743434e-24
-804.5932896684145,3.5688850213780304e-24,2.5868704572361968e-24,2.6884767184869525e-24
-801.3877387135603,3.5716846346584045e-24,3.248208716452835e-24,3.255436155400444e-24
-798.182187758706,3.574952237552265e-24,2.780439994876491e-24,2.8108838647882555e-24
-794.9766368038518,3.579233500556992e-24,3.259829554254737e-24,3.2627129528606377e-24
-791.7710858489976,3.583751062462911e-24,3.2868869733296736e-24,3.31612867889637e-24
-788.5655348941433,3.5888952020844495e-24,3.839678197909234e-24,3.7283937143716994e-24
-785.3599839392892,3.594589229518414e-24,3.5898550148194226e-24,3.465997695416496e-24
-782.154432984435,3.600795393071742e-24,3.9799818506666545e-24,3.741798467583701e-24
-778.9488820295807,3.607651807950785e-24,4.074288728996288e-24,3.805422644981262e-24
-775.7433310747265,3.614945116471225e-24,3.778581120541055e-24,3.534599997764549e-24
-772.5377801198722,3.622872464346976e-24,3.684744511785627e-24,3.4478632436527555e-24
-769.3322291650179,3.631308461327585e-24,3.3952644663531804e-24,3.2292785415597915e-24
-766.1266782101637,3.640284297803336e-24,3.133398375701065e-24,3.0201812419099483e-24
-762.9211272553094,3.6499985087511014e-24,2.8919807450750907e-24,2.840800183172918e-24
-759.7155763004552,3.6602915943011676e-24,2.5783516467803864e-24,2.592645333989697e-24
-756.510025345601,3.6709737291092505e-24,2.3328903438180446e-24,2.404242451523591e-24
-753.3044743907467,3.6823920725998155e-24,2.2147200563358288e-24,2.3063231483049887e-24
-750.0989234358924,3.694446149445407e-24,2.083223931642466e-24,2.2050543906291385e-24
-746.893372481038,3.706963167821472e-24,2.083378495487736e-24,2.2119972982650278e-24
-743.687821526184,3.7202380949666134e-24,2.115894181030165e-24,2.248451622228968e-24
-740.4822705713298,3.73393065735587e-24,2.2745492443352277e-24,2.39845558197608e-24
-737.2767196164754,3.748531075908936e-24,2.6678319620762865e-24,2.743129559915892e-24
-734.0711686616213,3.763559195041219e-24,3.3140590077859305e-24,3.297487691334557e-24
-730.865617706767,3.7792918149928795e-24,4.125196291757927e-24,3.9871460965116146e-24
-727.6600667519126,3.795783267854532e-24,4.8974154239844e-24,4.650262977456191e-24
-724.4545157970585,3.812814771849307e-24,5.457362695367362e-24,5.126463947051402e-24
-721.2489648422043,3.830556159952523e-24,5.756077884492225e-24,5.3776426584508394e-24
-718.0434138873499,3.848910226974413e-24,5.865967133468411e-24,5.464650863504412e-24
-714.8378629324958,3.86794493594946e-24,5.857083123867593e-24,5.447746153605569e-24
-711.6323119776415,3.88779448520059e-24,5.76140177005256e-24,5.372739132694521e-24
-708.4267610227873,3.9083600350029e-24,5.666234285470495e-24,5.299721699130344e-24
-705.2212100679332,3.9295894793757874e-24,5.588578172893972e-24,5.244250858058696e-24
-702.0156591130789,3.951665294732999e-24,5.50328985227656e-24,5.183491278205315e-24
-698.8101081582246,3.974362532042907e-24,5.376762864708714e-24,5.0900974084807146e-24
-695.6045572033704,3.997883683668754e-24,5.248238819909853e-24,4.991845290778896e-24
-692.3990062485161,4.022125025103765e-24,5.164715209566816e-24,4.9239802974704496e-24
-689.1934552936618,4.047175893768042e-24,5.102001574690727e-24,4.867739922939783e-24
-685.9879043388077,4.0731094884335e-24,4.994149429168433e-24,4.767237457023215e-24
-682.7823533839534,4.0998584756361556e-24,4.783387571542981e-24,4.57912457973218e-24
-679.5768024290991,4.1275023832568055e-24,4.484462225414878e-24,4.3148168630256774e-24
-676.3712514742449,4.15579189181699e-24,4.148098486345767e-24,4.0172332272627886e-24
-673.1657005193907,4.185015003418784e-24,3.866495066075298e-24,3.770794269858923e-24
-669.9601495645364,4.2152300120606e-24,3.718036110086034e-24,3.643299537970929e-24
-666.7545986096823,4.2463977988513786e-24,3.7420468572894176e-24,3.667552518866835e-24
-663.549047654828,4.278376035623694e-24,3.900736558474358e-24,3.816189237744317e-24
-660.3434966999737,4.311237963185954e-24,4.12194569012892e-24,4.0234779710850125e-24
-657.1379457451195,4.345501726857609e-24,4.345498703803287e-24,4.2315656875007825e-24
-653.9323947902652,4.3802806462457294e-24,4.549184886833453e-24,4.419658577021858e-24
-650.7268438354109,4.416341427617889e-24,4.726148604906697e-24,4.583845940881052e-24
-647.5212928805568,4.4530304152910506e-24,4.850277920008773e-24,4.7025466135485366e-24
-644.3157419257025,4.491370200088532e-24,4.866398046889606e-24,4.7274081925250785e-24
-641.1101909708482,4.530378021739659e-24,4.723580170999374e-24,4.6140703645398396e-24
-637.904640015994,4.570786299258948e-24,4.444187128761757e-24,4.3755332922435954e-24
-634.6990890611398,4.612097634875685e-24,4.127451601028125e-24,4.097466024374564e-24
-631.4935381062855,4.654932237170416e-24,3.9061772189714825e-24,3.8909196208706256e-24
-628.2879871514313,4.6985223924425135e-24,3.854034018135674e-24,3.822431761973165e-24
-625.0824361965771,4.7437050172015455e-24,3.9762464411041504e-24,3.9004140834408545e-24
-621.8768852417228,4.789711825821093e-24,4.207637491520588e-24,4.073604057713097e-24
-618.6713342868685,4.8375020390404746e-24,4.4493238819425284e-24,4.273159452896181e-24
-615.4657833320143,4.886323592118564e-24,4.637215287893491e-24,4.445840547764331e-24
-612.26023237716,4.936593570236022e-24,4.759467046443902e-24,4.578389776978026e-24
-609.0546814223057,4.9883375016899924e-24,4.841641692407721e-24,4.690396147742912e-24
-605.8491304674516,5.0413756410821065e-24,4.944583850136878e-24,4.8262190628780525e-24
-602.6435795125973,5.0959410890429695e-24,5.108197747909106e-24,5.01364239145634e-24
-599.4380285577431,5.152013682777471e-24,5.272712963144865e-24,5.190182161982326e-24
-596.2324776028889,5.209656860595211e-24,5.339818090397793e-24,5.257179238151063e-24
-593.0269266480346,5.268915193302644e-24,5.289631154721515e-24,5.194012093005446e-24
-589.8213756931804,5.329899098406653e-24,5.214858552936442e-24,5.097036093388633e-24
-586.6158247383262,5.3924590161608355e-24,5.186018010925151e-24,5.032913188585066e-24
-583.4102737834719,5.456804900265908e-24,5.186761872280209e-24,5.0002528415750394e-24
-580.2047228286176,5.523007390876401e-24,5.158673881545745e-24,4.956713201465768e-24
-576.9991718737634,5.590986218950182e-24,5.0509543937259544e-24,4.874201644876277e-24
-573.7936209189091,5.660834118764477e-24,4.878831794414193e-24,4.75746700341863e-24
-570.5880699640549,5.732558494859526e-24,4.7115873223128605e-24,4.664711328413164e-24
-567.3825190092007,5.8064999871277816e-24,4.6685754056178916e-24,4.679019932977512e-24
-564.1769680543465,5.882581635144332e-24,4.862088555835325e-24,4.880241455698188e-24
-560.9714170994922,5.960519777587093e-24,5.33221941917249e-24,5.310100790796607e-24
-557.765866144638,6.041082590854902e-24,6.045268309212393e-24,5.937875820063949e-24
-554.5603151897838,6.1232612807175326e-24,6.790203498418171e-24,6.6053291671058575e-24
-551.3547642349295,6.2086391915045625e-24,7.405679153890933e-24,7.16083414541292e-24
-548.1492132800753,6.2955686278828785e-24,7.718038992403524e-24,7.487284731115948e-24
-544.943662325221,6.3857331996076706e-24,7.812705606048398e-24,7.610865508131245e-24
-541.7381113703667,6.4780182346328654e-24,7.618925597200962e-24,7.510713822992647e-24
-538.5325604155125,6.5733737231242025e-24,7.271438183239808e-24,7.224752825819683e-24
-535.3270094606582,6.671047700605711e-24,6.700572656833219e-24,6.749120822565729e-24
-532.121458505804,6.77173486327565e-24,6.111298051378553e-24,6.203287814806516e-24
-528.9159075509498,6.87555441989394e-24,5.570178370028003e-24,5.713524629410201e-24
-525.7103565960956,6.982002420950906e-24,5.2428728344970394e-24,5.3834751821098184e-24
-522.5048056412413,7.092150323449238e-24,5.206170628843852e-24,5.316151017377724e-24
-519.2992546863871,7.204819195753389e-24,5.311370253321728e-24,5.389460243627889e-24
-516.0937037315329,7.321744233159618e-24,5.699395410009333e-24,5.640451420645774e-24
-512.8881527766786,7.441269191593894e-24,5.8653185532475184e-24,5.8130577703837855e-24
-509.68260182182433,7.565610668151702e-24,6.375446662992055e-24,6.111998100400768e-24
-506.4770508669702,7.691763588050615e-24,6.4679791497707435e-24,6.3331060386131684e-24
-503.27149991211587,7.82447865228717e-24,7.229420675749667e-24,6.85525022251565e-24
-500.0659489572616,7.957732540631882e-24,7.668923208289098e-24,7.556652428342307e-24
-496.86039800240746,8.099412924896899e-24,8.963561141893367e-24,8.580234580766188e-24
-493.6548470475531,8.239945320590452e-24,9.846632855692142e-24,9.70125664789164e-24
-490.44929609269894,8.39196200712817e-24,1.0715162500692073e-23,1.0363368670583025e-23
-487.2437451378446,8.539852045335212e-24,1.1381847448716966e-23,1.1176815180849405e-23
-484.0381941829905,8.703611432596426e-24,1.115741579611604e-23,1.0999551238918865e-23
-480.8326432281362,8.858152980178256e-24,1.227788757924328e-23,1.1998033432138618e-23
-477.62709227328185,9.03603331018689e-24,1.1021354272387121e-23,1.1160698446637468e-23
-474.4215413184277,9.196016763471199e-24,1.3185998415890659e-23,1.2627366208215793e-23
-471.21599036357344,9.391368669559027e-24,1.002170607043904e-23,1.0798144939579705e-23
-468.0104394087192,9.554507860693783e-24,1.3831209896197406e-23,1.2479015250504335e-23
-464.804888453865,9.772307284296903e-24,7.57114473583233e-24,9.480238176121383e-24
-461.59933749901074,9.934064573101257e-24,1.3901475187596403e-23,1.1267587965479814e-23
-458.3937865441565,1.0181860353467911e-23,5.72779691416651e-24,8.586434479012893e-24
-455.1882355893023,1.0335091745110596e-23,1.4226046184301116e-23,1.0326914637539011e-23
-451.982684634448,1.0624808241281618e-23,6.481364241629678e-24,9.411312980688837e-24
-448.77713367959376,1.0756319078249914e-23,1.4393384386085275e-23,1.0090859640626984e-23
-445.5715827247395,1.1107394826010233e-23,8.194965602884517e-24,1.045577248485263e-23
-442.36603176988535,1.119518896730554e-23,1.63569551659096e-23,1.148605375268428e-23
-439.16048081503106,1.163859644724068e-23,8.140496170246637e-24,1.0556957175355418e-23
-435.9549298601768,1.1645712735862017e-23,2.1885330641608294e-23,1.4249107493837623e-23
-432.7493789053226,1.2232023315842278e-23,8.431442064283577e-24,1.0967046996939589e-23
-429.5438279504683,1.2097754652167626e-23,2.3152290605112488e-23,1.4762302012454014e-23
-426.3382769956141,1.2909379979644756e-23,1.1623175694591016e-23,1.2804294080849669e-23
-423.1327260407598,1.2531705834823358e-23,1.9231840497769327e-23,1.1730250808560752e-23
-419.9271750859056,1.3703462920710079e-23,1.992256536075196e-23,1.776385453006279e-23
-416.7216241310513,1.2915857376665373e-23,1.26314890300242e-23,6.644575964905742e-24
-413.51607317619704,1.466990839764031e-23,3.477193426986573e-23,2.410694404068691e-23
-410.31052222134286,1.3194605976474913e-23,1.3589915209797333e-25,5.536429474324254e-24
-407.10497126648863,1.5898818723733863e-23,7.016598019246452e-23,2.8572658486206663e-23
-403.8994203116344,1.32831015913356e-23,4.750358515188465e-23,3.6137004712743564e-23
-400.69386935678017,1.754459700776867e-23,2.017077445771744e-22,4.882178514798205e-23
-397.4883184019259,1.3042849947626238e-23,3.1344951944227554e-22,1.4794692530235973e-22
-394.28276744707165,1.9875184629325585e-23,5.680270063915812e-22,1.2401408327673256e-22
-391.0772164922175,1.2273652233302101e-23,9.889019845938927e-22,3.8092845558552966e-22
-387.87166553736324,2.3372988217324812e-23,1.3314576345839694e-21,2.8926284290008225e-22
-384.66611458250895,1.0705042014926924e-23,2.2164355922633103e-21,7.706277556441684e-22
-381.4605636276547,2.8942656469126027e-23,2.7283776661035017e-21,7.009515560084273e-22
-378.2550126728005,8.061938906980438e-24,5.024423828564372e-21,1.783025529832761e-21
-375.0494617179462,3.835563189955169e-23,7.039682246669028e-21,2.2809059388345355e-21
-371.843910763092,4.330056214181862e-24,1.392287243208642e-20,4.98448239801677e-21
-368.6383598082377,5.526374355619301e-23,2.1680294157296443e-20,7.31220349422365e-21
-365.4328088533835,6.32884686783595e-25,3.8771254272361866e-20,1.3481881630884386e-20
-362.2272578985293,8.756601412696687e-23,5.449174123922666e-20,1.8550576444407476e-20
-359.02170694367493,1.7940459618867256e-24,7.987721649452399e-20,2.8342038949630533e-20
-355.81615598882075,1.5312811170044826e-22,9.665236470960396e-20,3.456448168584189e-20
-352.6106050339666,2.3452546817744e-23,1.2227467310363563e-19,4.607738066229377e-20
-349.4050540791123,2.938796929345188e-22,1.3507759857515766e-19,5.356098273712713e-20
-346.19950312425806,1.1125299263591957e-22,1.6689653637215011e-19,7.115301120201336e-20
-342.9939521694038,6.110909834264215e-22,1.915968614457393e-19,9.062823195247565e-20
-339.78840121454954,3.917493723509029e-22,2.456637369965351e-19,1.2652794885993178e-19
-336.58285025969536,1.3545442112354681e-21,3.264136357546989e-19,1.8951418161571362e-19
-333.37729930484113,1.2060093342906872e-21,4.973099571491155e-19,2.982004437392824e-19
-330.17174834998684,3.149525715615824e-21,7.989978078537725e-19,4.87854775542632e-19
-326.9661973951326,3.458113425783472e-21,1.3441004953404386e-18,7.693873576034971e-19
-323.7606464402784,7.577275047793554e-21,2.3170237583897195e-18,1.2500416018901412e-18
-320.5550954854241,9.520470415422368e-21,3.812490734801789e-18,1.917657554543559e-18
-317.3495445305699,1.8663654998203324e-20,6.061526619557346e-18,2.9336099728929217e-18
-314.1439935757156,2.5579656175616477e-20,9.06010654819829e-18,4.225631054147421e-18
-310.9384426208614,4.670486821883536e-20,1.3566529521920608e-17,6.185314742391255e-18
-307.73289166600716,6.770487936226842e-20,2.0932936934068068e-17,9.237323499933584e-18
-304.5273407111529,1.1811110982881358e-19,3.396622891486848e-17,1.463306594893427e-17
-301.32178975629864,1.7753028332255175e-19,5.334376923428013e-17,2.258447430346257e-17
-298.11623880144447,3.0075643062693463e-19,7.725492599218613e-17,3.2358388687675943e-17
-294.9106878465902,4.627532204154502e-19,9.885856901472409e-17,4.061106260143507e-17
-291.70513689173595,7.692955335720792e-19,1.1429688251818534e-16,4.5715270528261575e-17
-288.4995859368817,1.2016738530025445e-18,1.2460756002819772e-16,4.842859599044856e-17
-285.2940349820274,1.973518131370614e-18,1.436611240141253e-16,5.527869656860677e-17
-282.08848402717325,3.1129654901926357e-18,1.9745381504372958e-16,7.746313940664769e-17
-278.882933072319,5.072385629803674e-18,3.449294161471953e-16,1.3835384377437792e-16
-275.67738211746473,8.051712786706573e-18,6.756700185344957e-16,2.697224752246102e-16
-272.4718311626105,1.3053187216288098e-17,1.2724621804156823e-15,4.959153474417607e-16
-269.26628020775627,2.0805037733851307e-17,2.1906889499844534e-15,8.2980613147027755e-16
-266.060729252902,3.361755092732131e-17,3.5376166883548683e-15,1.310646884164114e-15
-262.8551782980478,5.3724083944668523e-17,5.4922384255804294e-15,2.017482738803983e-15
-259.6496273431936,8.662417245821223e-17,8.363938767363576e-15,3.0690321655839145e-15
-256.4440763883393,1.38672006113451e-16,1.2790348335179723e-14,4.692102426825166e-15
-253.2385254334851,2.2328365734047106e-16,1.9775166100596838e-14,7.229421795291502e-15
-250.0329744786308,3.578422765984115e-16,3.046421846766681e-14,1.107763264879259e-14
-246.82742352377656,5.756634358257752e-16,4.6762868070305873e-14,1.689653255983249e-14
-243.6218725689223,9.23248779264179e-16,7.30860355148987e-14,2.636819952436785e-14
-240.4163216140681,1.4843669172789346e-15,1.1725569180047644e-13,4.270743557917289e-14
-237.21077065921386,2.3817528488243957e-15,1.9022345935182304e-13,7.076638016959783e-14
-234.0052197043596,3.827837085157876e-15,3.0623308486944525e-13,1.1727418963280807e-13
-230.79966874950537,6.143880008134394e-15,4.820348034552034e-13,1.9137177403296544e-13
-227.59411779465114,9.871686272946658e-15,7.406471983355454e-13,3.079183466418156e-13
-224.38856683979688,1.584776411083432e-14,1.1374293649568397e-12,5.002748538826372e-13
-221.18301588494268,2.5459272214696117e-14,1.7848488162502502e-12,8.307689507427413e-13
-217.9774649300884,4.0877069524369414e-14,2.8250733742869886e-12,1.3796204529262887e-12
-214.77191397523416,6.56616111983652e-14,4.406435412587832e-12,2.238606948747557e-12
-211.5663630203799,1.0543448846515179e-13,6.755490842977052e-12,3.5507120525525706e-12
-208.36081206552566,1.6934961179274403e-13,1.0170150938993732e-11,5.505375214961944e-12
-205.15526111067143,2.7194425068529716e-13,1.4879772323528505e-11,8.262230827861114e-12
-201.9497101558172,4.367787771654617e-13,2.1210356922096194e-11,1.2039572841623014e-11
-198.74415920096294,7.014121826630182e-13,3.001276883998795e-11,1.7379402775530563e-11
-195.53860824610874,1.1265277516997824e-12,4.255519323070623e-11,2.5126942108992727e-11
-192.33305729125448,1.8091070405323212e-12,6.01086524544476e-11,3.614726831911577e-11
-189.12750633640024,2.9055225939942473e-12,8.396155461961146e-11,5.1321922941510875e-11
-185.921955381546,4.66609532216677e-12,1.150651454055624e-10,7.152646959713518e-11
-182.71640442669175,7.493900606436696e-12,1.534604995604271e-10,9.74510879948388e-11
-179.51085347183746,1.2034883421319017e-11,2.0038917004867797e-10,1.305875320162983e-10
-176.3053025169833,1.9328246751034086e-11,2.658987928713118e-10,1.7746376610613435e-10
-173.09975156212903,3.1040554460334755e-11,3.795795220649671e-10,2.5686876800526963e-10
-169.89420060727477,4.985142316483152e-11,5.976704702609203e-10,4.062668499194573e-10
-166.68864965242057,8.006018551960563e-11,1.0014824989598556e-09,6.856252726556108e-10
-163.4830986975663,1.285769249909645e-10,1.6793509961927202e-09,1.173676116007573e-09
-160.27754774271204,2.064920851913783e-10,2.7059985352308646e-09,1.9588832866638567e-09
-157.0719967878578,3.316261403661659e-10,4.162436231113823e-09,3.14903718386051e-09
-153.86644583300358,5.325863436777694e-10,6.201922217254312e-09,4.911345696518904e-09
-150.66089487814932,8.553318448113089e-10,9.141683390285564e-09,7.545480849188922e-09
-147.4553439232951,1.3736513240013394e-09,1.3645701598922499e-08,1.1640944387869792e-08
-144.24979296844086,2.2060768397112034e-09,2.096335830178579e-08,1.8284540439946852e-08
-141.04424201358663,3.542932701234936e-09,3.305089877332141e-08,2.920392467005726e-08
-137.83869105873237,5.689927082874822e-09,5.27402064835073e-08,4.692840656800705e-08
-134.63314010387813,9.137959667537109e-09,8.415805245666149e-08,7.507336947370792e-08
-131.4275891490239,1.4675496852783161e-08,1.3352724877636774e-07,1.1900419310555076e-07
-128.22203819416964,2.356869462975735e-08,2.1027298124308882e-07,1.8687740196300445e-07
-125.0164872393154,3.7851139253314647e-08,3.2655587585749767e-07,2.894030335454443e-07
-121.81093628446115,6.078855090606922e-08,4.942053117767377e-07,4.3701503095952443e-07
-118.60538532960693,9.762591361103042e-08,7.229412581026256e-07,6.374299931735708e-07
-115.39983437475269,1.5678626753744905e-07,1.0230419077069151e-06,8.978413171753346e-07
-112.19428341989844,2.5179741127672836e-07,1.4128161448725574e-06,1.2332077106798175e-06
-108.9887324650442,4.043842266766315e-07,1.936942281597769e-06,1.6842496193684583e-06
-105.78318151018995,6.49437507879753e-07,2.6812253911061334e-06,2.3305327040051097e-06
-102.57763055533572,1.042990373743967e-06,3.7432508302263767e-06,3.266518417144565e-06
-99.37207960048147,1.6750329104805908e-06,5.176687868500335e-06,4.5608455637875295e-06
-96.16652864562724,2.6900860264358368e-06,7.017161046575351e-06,6.280325091408082e-06
-92.960977690773,4.32025094662348e-06,9.46768007606517e-06,8.628454357712852e-06
-89.75542673591873,6.938274348739874e-06,1.3125709963731585e-05,1.2099216109404634e-05
-86.54987578106451,1.1142783686729776e-05,1.9091033262434962e-05,1.7558831054979818e-05
-83.34432482621028,1.7895148595674164e-05,2.9061111360189196e-05,2.6391087239516923e-05
-80.13877387135602,2.873929351666007e-05,4.5693570692941124e-05,4.086091103717192e-05
-76.93322291650179,4.6154642399181734e-05,7.3289545754191e-05,6.46544354408043e-05
-73.72767196164754,7.412290698007478e-05,0.00011880896784313675,0.00010362327158103225
-70.52212100679331,0.00011903804341772182,0.00019354846451741104,0.00016728303090579854
-67.31657005193907,0.00019116713728105648,0.00031510131702757973,0.0002710555018285697
-64.11101909708482,0.00030699491017723794,0.0005098541638634619,0.0004390385419587367
-60.905468142230575,0.0004929852134550155,0.0008171457234922483,0.0007078660209084807
-57.69991718737634,0.0007916115353141015,0.0012903417423826148,0.0011274432323149623
-54.4943662325221,0.001271016086158135,0.001995923492756905,0.0017596084620107963
-51.28881527766786,0.0020404542329098886,0.003026481647987943,0.0026908904663321786
-48.08326432281362,0.0032749251143122378,0.004532350722551754,0.0040642578722335475
-44.877713367959366,0.005254280864284527,0.006770676293664559,0.006125965763698557
-41.67216241310514,0.00842489222611891,0.010172366702340131,0.009289050149102064
-38.466611458250895,0.013495755334563387,0.015390916167426395,0.014182932736367171
-35.261060503396656,0.021585405084059393,0.023299349270825907,0.021656602964989672
-32.05550954854241,0.03443912338822729,0.0349519666720103,0.032748731221249494
-28.84995859368817,0.05473128729196443,0.05170818648032452,0.04880926133521854
-25.64440763883393,0.08643823959342711,0.07591264594407181,0.0721587164387984
-22.438856683979683,0.13517452105534258,0.11203212561880467,0.1072143387621388
-19.233305729125448,0.208160234682662,0.1673723450280613,0.16123647860860751
-16.027754774271205,0.3130588461700619,0.25177338036384267,0.24408892372922816
-12.822203819416965,0.45440949531634606,0.3759479133163204,0.366696825885667
-9.616652864562724,0.6266054888778262,0.5457557558803058,0.5355226905439454
-6.411101909708482,0.8053275401953726,0.7470246441465966,0.7375106028631522
-3.205550954854241,0.9459262498371354,0.9258975973816217,0.919914092721329
0.0,1.0,1.0,1.0
3.205550954854241,0.945926249837135,0.9258975973815917,0.9318804146034697
6.411101909708482,0.8053275401953726,0.7470246441465749,0.756549227537082
9.616652864562724,0.626605488877826,0.5457557558802879,0.5560375319571343
12.822203819416965,0.4544094953163459,0.37594791331631205,0.3853091071069572
16.027754774271205,0.31305884617006197,0.25177338036383873,0.2596434369093598
19.233305729125448,0.208160234682662,0.16737234502805626,0.17377473048820571
22.438856683979683,0.13517452105534256,0.11203212561880234,0.11718654854555148
25.64440763883393,0.08643823959342706,0.0759126459440709,0.080040953548429
28.84995859368817,0.05473128729196443,0.051708186480324,0.054975170926805386
32.05550954854241,0.03443912338822729,0.03495196667201042,0.037480272297819923
35.261060503396656,0.0215854050840594,0.023299349270825664,0.025208095726586926
38.466611458250895,0.013495755334563377,0.015390916167426322,0.0168087675491735
41.67216241310514,0.008424892226118913,0.010172366702340245,0.01122041276282882
44.877713367959366,0.00525428086428452,0.006770676293664557,0.007545084522747344
48.08326432281362,0.003274925114312237,0.004532350722551798,0.005101726315762388
51.28881527766786,0.0020404542329098877,0.003026481647987925,0.0034394257118495306
54.4943662325221,0.001271016086158134,0.0019959234927568684,0.0022897130892950983
57.69991718737634,0.000791611535314103,0.0012903417423825955,0.0014947451491938244
60.905468142230575,0.0004929852134550162,0.0008171457234922378,0.000955418308294603
64.11101909708482,0.00030699491017723804,0.0005098541638634445,0.0006001180237889553
67.31657005193907,0.0001911671372810569,0.00031510131702758293,0.0003716377750270532
70.52212100679331,0.00011903804341772114,0.00019354846451740345,0.00022760002931303665
73.72767196164754,7.412290698007464e-05,0.00011880896784313332,0.00013886808341525452
76.93322291650179,4.615464239918171e-05,7.328954575419246e-05,8.506279668161001e-05
80.13877387135602,2.8739293516659905e-05,4.569357069294149e-05,5.2577646138536496e-05
83.34432482621028,1.7895148595674066e-05,2.906111136018723e-05,3.303837131190757e-05
86.54987578106451,1.114278368672972e-05,1.909103326243456e-05,2.1389229131731554e-05
89.75542673591873,6.938274348739767e-06,1.3125709963729578e-05,1.4539811421459918e-05
92.960977690773,4.3202509466234346e-06,9.467680076068108e-06,1.0473963417897102e-05
96.16652864562724,2.690086026435776e-06,7.017161046576065e-06,7.82541264917282e-06
99.37207960048147,1.6750329104805699e-06,5.176687868502919e-06,5.834007568360442e-06
102.57763055533572,1.042990373743967e-06,3.7432508302265923e-06,4.252111552474647e-06
105.78318151018995,6.494375078797193e-07,2.68122539110453e-06,3.056987537021101e-06
108.9887324650442,4.043842266766084e-07,1.9369422815991365e-06,2.20390948106663e-06
112.19428341989844,2.517974112767488e-07,1.4128161448717593e-06,1.5922146005531343e-06
115.39983437475269,1.5678626753746903e-07,1.0230419077066233e-06,1.1361114567395015e-06
118.60538532960693,9.76259136110216e-08,7.229412581016067e-07,7.922025546139613e-07
121.81093628446115,6.078855090607392e-08,4.942053117769861e-07,5.37340427804241e-07
125.0164872393154,3.785113925331288e-08,3.265558758575336e-07,3.534152122458629e-07
128.22203819416964,2.3568694629757418e-08,2.1027298124279914e-07,2.259124461822484e-07
131.4275891490239,1.4675496852778886e-08,1.335272487764243e-07,1.4148736552821997e-07
134.63314010387813,9.137959667537855e-09,8.415805245669838e-08,8.716953866852045e-08
137.83869105873237,5.689927082875878e-09,5.274020648336509e-08,5.273006157368681e-08
141.04424201358663,3.542932701234764e-09,3.305089877314572e-08,3.140340707106355e-08
144.24979296844086,2.2060768397099755e-09,2.0963358301688706e-08,1.8661336392374624e-08
147.4553439232951,1.373651324001677e-09,1.364570159902897e-08,1.1339168313861074e-08
150.66089487814932,8.553318448113624e-10,9.141683390313409e-09,7.206750510956628e-09
153.86644583300358,5.325863436776787e-10,6.20192221728633e-09,4.755139917936199e-09
157.0719967878578,3.3162614036548225e-10,4.162436231151391e-09,3.139271820881603e-09
160.27754774271204,2.0649208519141457e-10,2.705998535268295e-09,2.0002463147318477e-09
163.4830986975663,1.2857692499105292e-10,1.679350996165016e-09,1.2106274384647091e-09
166.68864965242057,8.006018551954773e-11,1.001482498953717e-09,7.024022666841408e-10
169.89420060727477,4.9851423164562324e-11,5.97670470274291e-10,4.050326083529382e-10
173.09975156212903,3.104055446035785e-11,3.79579522064533e-10,2.4570604359361737e-10
176.3053025169833,1.932824675094168e-11,2.658987928771533e-10,1.636823786342754e-10
179.51085347183746,1.2034883421242564e-11,2.0038917004281737e-10,1.1844941399708122e-10
182.71640442669175,7.493900606371104e-12,1.5346049955514721e-10,8.865405081357523e-11
185.921955381546,4.666095322180231e-12,1.1506514540960559e-10,6.602900902416032e-11
189.12750633640024,2.905522594090808e-12,8.396155461077797e-11,4.831083361382553e-11
192.33305729125448,1.8091070405548094e-12,6.010865245899467e-11,3.4732406206832427e-11
195.53860824610874,1.1265277517058261e-12,4.255519322486734e-11,2.4634735837169102e-11
198.74415920096294,7.014121827163642e-13,3.001276883917554e-11,1.7403059018112003e-11
201.9497101558172,4.367787770405727e-13,2.1210356929464018e-11,1.2371794288370141e-11
205.15526111067143,2.7194425068529716e-13,1.4879772321502246e-11,8.788853361466163e-12
208.36081206552566,1.693496118428899e-13,1.0170150940748423e-11,6.101846740123116e-12
211.5663630203799,1.0543448842725945e-13,6.755490844037243e-12,4.103721658611807e-12
214.77191397523416,6.56616112026362e-14,4.406435410908815e-12,2.695672523464169e-12
217.9774649300884,4.087706952470252e-14,2.825073374999184e-12,1.7318936386085112e-12
221.18301588494268,2.5459272211063214e-14,1.7848488158203671e-12,1.0883398387588163e-12
224.38856683979688,1.5847764106972497e-14,1.1374293645605311e-12,6.847059907589539e-13
227.59411779465114,9.871686267823521e-15,7.406471991074743e-13,4.397875274963331e-13
230.79966874950537,6.143880008672794e-15,4.820348032905878e-13,2.833920719687208e-13
234.0052197043596,3.827837085252691e-15,3.062330848223776e-13,1.789964824948871e-13
237.21077065921386,2.38175285003327e-15,1.9022346041885503e-13,1.1137600021294422e-13
240.4163216140681,1.4843669179863963e-15,1.1725569175560523e-13,6.942616151107944e-14
243.6218725689223,9.232487795009465e-16,7.308603546074167e-14,4.398318870927937e-14
246.82742352377656,5.756634360313931e-16,4.676286812081397e-14,2.863073685314888e-14
250.0329744786308,3.5784227708987826e-16,3.046421844193918e-14,1.896621133099692e-14
253.2385254334851,2.2328365605674395e-16,1.9775166093731104e-14,1.2448790359738325e-14
256.4440763883393,1.3867200610749322e-16,1.2790348363039948e-14,8.015497379062481e-15
259.6496273431936,8.66241730870551e-17,8.363938842997185e-15,5.113555543174919e-15
262.8551782980478,5.372408373645394e-17,5.4922384889589566e-15,3.236649401234338e-15
266.060729252902,3.361755099969425e-17,3.5376167488709612e-15,2.016358927837127e-15
269.26628020775627,2.0805037682112863e-17,2.1906889744659777e-15,1.2227136651385625e-15
272.4718311626105,1.3053187133221325e-17,1.272462190612196e-15,7.068419948396024e-16
275.67738211746473,8.051712777034482e-18,6.756700383678934e-16,3.7718136872010064e-16
278.882933072319,5.072385596607126e-18,3.4492941317511502e-16,1.9138317417154635e-16
282.08848402717325,3.1129654900500895e-18,1.9745381857188757e-16,1.0382862839263393e-16
285.2940349820274,1.9735181148336858e-18,1.436611286238199e-16,6.878661572809821e-17
288.4995859368817,1.2016738776650803e-18,1.24607561047653e-16,5.487580673768843e-17
291.70513689173595,7.692955595299161e-19,1.1429687842235937e-16,4.8489844632141825e-17
294.9106878465902,4.627532316892277e-19,9.885857422834537e-17,4.15879286715041e-17
298.11623880144447,3.007564226491647e-19,7.725491807020999e-17,3.2429379086623266e-17
301.32178975629864,1.7753029485964615e-19,5.334377215792686e-17,2.1909187232443375e-17
304.5273407111529,1.1811109716220207e-19,3.396622206239559e-17,1.334153594752526e-17
307.73289166600716,6.770487937157264e-20,2.0932934448155386e-17,7.596281984068211e-18
310.9384426208614,4.670486242426923e-20,1.3566527317834476e-17,4.5167430001895445e-18
314.1439935757156,2.557964872833723e-20,9.06010732740479e-18,2.825598351943345e-18
317.3495445305699,1.8663658106138078e-20,6.061526407568719e-18,1.8579848044391753e-18
320.5550954854241,9.520466190302946e-21,3.812491759377965e-18,1.178033278688578e-18
323.7606464402784,7.57727422750812e-21,2.317023815269173e-18,7.325105453906605e-19
326.9661973951326,3.458113679877822e-21,1.3441007202260863e-18,4.314043258391062e-19
330.17174834998684,3.1495266580303844e-21,7.989976866006129e-19,2.504308419972886e-19
333.37729930484113,1.2060093207436358e-21,4.973099815162697e-19,1.471361844156038e-19
336.58285025969536,1.3545430492996005e-21,3.2641344127190326e-19,8.621732242084503e-20
339.78840121454954,3.9174925117031295e-22,2.4566375583527037e-19,6.228362844631329e-20
342.9939521694038,6.110915530715109e-22,1.915963397745416e-19,4.553390348964636e-20
346.19950312425806,1.1125325950642895e-22,1.6689646451311671e-19,4.2404256593300006e-20
349.4050540791123,2.938803836171671e-22,1.3507758398463757e-19,3.303854062530282e-20
352.6106050339666,2.3452175451126593e-23,1.2227475300929622e-19,3.178341685529344e-20
355.81615598882075,1.531279443496358e-22,9.665227115059001e-20,2.3984476595580188e-20
359.02170694367493,1.794040533258463e-24,7.987711687601931e-20,2.095361802439661e-20
362.2272578985293,8.75659459873869e-23,5.44916299116433e-20,1.3388750897026153e-20
365.4328088533835,6.328655939101709e-25,3.877123159247023e-20,9.925987858456375e-21
368.6383598082377,5.526388953525272e-23,2.168015400242428e-20,4.8754576403686306e-21
371.843910763092,4.330051656220577e-24,1.3922920953881952e-20,3.216641872718703e-21
375.0494617179462,3.8355930861799956e-23,7.039574971203085e-21,1.3862764764600834e-21
378.2550126728005,8.061990689433503e-24,5.0243669611629686e-21,1.0917335509769436e-21
381.4605636276547,2.894280676551163e-23,2.7283577864959635e-21,6.1688821605211115e-22
384.66611458250895,1.0705046750046508e-23,2.2163971390376127e-21,5.217895307776145e-22
387.87166553736324,2.337321589126821e-23,1.3314698569605624e-21,3.7365521189460934e-22
391.0772164922175,1.2273301174027992e-23,9.888889981111018e-22,2.4154568454426263e-22
394.28276744707165,1.987534722596583e-23,5.679848355573401e-22,1.8959293983470697e-22
397.4883184019259,1.3042443198740765e-23,3.134679926428295e-22,7.223994171384076e-23
400.69386935678017,1.754474007546717e-23,2.0173326899313689e-22,8.668239914139636e-23
403.8994203116344,1.328303169368647e-23,4.750206721952833e-23,7.619338509928058e-24
407.10497126648863,1.5899367777137892e-23,7.016661612701764e-23,3.846521558061725e-23
410.31052222134286,1.3194605976474913e-23,1.3596957293680662e-25,4.4697205580803926e-24
413.51607317619704,1.4669805250949725e-23,3.476863468541291e-23,1.9282658623592625e-23
416.7216241310513,1.291578844780186e-23,1.2632532671627725e-23,1.3779700940412664e-23
419.9271750859056,1.370358935931129e-23,1.9919710888505704e-23,1.182758138322879e-23
423.1327260407598,1.2531598526792325e-23,1.9229855869911852e-23,1.752646769694265e-23
426.3382769956141,1.2909215272984215e-23,1.1623069983886267e-23,8.76378777360419e-24
429.5438279504683,1.2097692418114725e-23,2.315127582373111e-23,1.967061466755485e-23
432.7493789053226,1.2232188020115631e-23,8.431568978600516e-24,7.358346941066352e-24
435.9549298601768,1.1645717673664251e-23,2.1880275517058094e-23,1.8779987992029034e-23
439.16048081503106,1.1638410938251269e-23,8.141281313172803e-24,7.392197606044281e-24
442.36603176988535,1.119524998843702e-23,1.6358458727376108e-23,1.52769262125951e-23
445.5715827247395,1.1107349957117242e-23,8.195631799892493e-24,7.378441014499675e-24
448.77713367959376,1.0756311894271677e-23,1.4391130354479493e-23,1.339734178438168e-23
451.982684634448,1.0624738094578992e-23,6.482492716172651e-24,6.90312089994314e-24
455.1882355893023,1.0335080745275453e-23,1.4227126766975038e-23,1.2420664632285918e-23
458.3937865441565,1.0182001278872489e-23,5.7257149687261655e-24,7.295302621241129e-24
461.59933749901074,9.934077347406172e-24,1.3900657480088448e-23,1.1989271395405036e-23
464.804888453865,9.77218459609949e-24,7.570510950921284e-24,9.246845381080219e-24
468.0104394087192,9.554506362763058e-24,1.3829780665169455e-23,1.2328264885545658e-23
471.21599036357344,9.39144484107294e-24,1.0022424521474218e-23,1.120625348875713e-23
474.4215413184277,9.196103848509031e-24,1.3188973084228852e-23,1.2233176591469128e-23
477.62709227328185,9.03613350918411e-24,1.1019395561133147e-23,1.1719695348117875e-23
480.8326432281362,8.85823244966994e-24,1.2279855466047887e-23,1.1707497282635241e-23
484.0381941829905,8.703582797875952e-24,1.1156877114539943e-23,1.1493971579893912e-23
487.2437451378446,8.53984942676719e-24,1.1382663153433364e-23,1.1042239207995284e-23
490.44929609269894,8.392047912759255e-24,1.0716112444677459e-23,1.0772792245460347e-23
493.6548470475531,8.240043676122522e-24,9.845208958486857e-24,9.694783446319011e-24
496.86039800240746,8.099494086499813e-24,8.964202219239268e-24,8.888363626186006e-24
500.0659489572616,7.95770231028733e-24,7.669703994113308e-24,7.605966666629812e-24
503.27149991211587,7.824392085405964e-24,7.227549658147873e-24,7.035850789375988e-24
506.4770508669702,7.691922156513908e-24,6.4694930103317484e-24,6.38317877308682e-24
509.68260182182433,7.565406026111543e-24,6.3720357906362944e-24,6.208830946033504e-24
512.8881527766786,7.441269094051364e-24,5.865344029030586e-24,5.8569877905734694e-24
516.0937037315329,7.321956850627365e-24,5.6998064140525336e-24,5.677191661326035e-24
519.2992546863871,7.204905582525874e-24,5.3122161014600375e-24,5.4014975182306264e-24
522.5048056412413,7.092240241724444e-24,5.205625293572808e-24,5.291933266046583e-24
525.7103565960956,6.98195650586041e-24,5.2390811359056986e-24,5.3541068867782765e-24
528.9159075509498,6.875545075931719e-24,5.5669681056579764e-24,5.652881708637264e-24
532.121458505804,6.771734888662278e-24,6.110779441491656e-24,6.157733998602994e-24
535.3270094606582,6.671128373981954e-24,6.698182160141475e-24,6.700410701056888e-24
538.5325604155125,6.57337372416716e-24,7.270973059848077e-24,7.202088104354278e-24
541.7381113703667,6.477961896983404e-24,7.618081206751738e-24,7.494711795309167e-24
544.943662325221,6.385798690392139e-24,7.812503540789331e-24,7.615195870088613e-24
548.1492132800753,6.2956815728798725e-24,7.718303008897322e-24,7.501507259525279e-24
551.3547642349295,6.208608968696711e-24,7.407304654173733e-24,7.193002693275561e-24
554.5603151897838,6.1233725301089095e-24,6.790551030441833e-24,6.650260376270437e-24
557.765866144638,6.040825230379728e-24,6.047874210326981e-24,5.989645731130895e-24
560.9714170994922,5.9605779706091866e-24,5.332182458931816e-24,5.3563266404337965e-24
564.1769680543465,5.882582862229504e-24,4.8630203337564744e-24,4.914048477760183e-24
567.3825190092007,5.806562603920621e-24,4.6686275467213766e-24,4.700590305995908e-24
570.5880699640549,5.7327672807859594e-24,4.710994594395375e-24,4.6746994603890926e-24
573.7936209189091,5.660784126651571e-24,4.8782719562320156e-24,4.7611375845572e-24
576.9991718737634,5.591052946424277e-24,5.050486677119521e-24,4.876779662355916e-24
580.2047228286176,5.5229598664263455e-24,5.1586681980581894e-24,4.960740886339464e-24
583.4102737834719,5.45669295786336e-24,5.186532573283077e-24,5.002011904647692e-24
586.6158247383262,5.3923849220355e-24,5.187712918296235e-24,5.035714300804352e-24
589.8213756931804,5.3298951177705645e-24,5.216128312387966e-24,5.096640732810998e-24
593.0269266480346,5.2690920621048225e-24,5.288106485861838e-24,5.1894058377406716e-24
596.2324776028889,5.209723943718529e-24,5.3401075310399006e-24,5.246497211493152e-24
599.4380285577431,5.152064179334997e-24,5.27289609667927e-24,5.175691189677478e-24
602.6435795125973,5.0959562416742024e-24,5.108651611600405e-24,4.989842921147798e-24
605.8491304674516,5.0415877814059696e-24,4.9457111901507595e-24,4.802668846963408e-24
609.0546814223057,4.98817730890528e-24,4.8424170992078534e-24,4.667194251059432e-24
612.26023237716,4.936582835439996e-24,4.7570093520370576e-24,4.5625494395798495e-24
615.4657833320143,4.886323592118564e-24,4.636051476581731e-24,4.4394935458562144e-24
618.6713342868685,4.837531951093886e-24,4.449791982316197e-24,4.2705738044543376e-24
621.8768852417228,4.789880646522506e-24,4.208299012604901e-24,4.077292231122306e-24
625.0824361965771,4.743528334640687e-24,3.976278926910948e-24,3.9014066415853696e-24
628.2879871514313,4.6985042728256956e-24,3.853430551481477e-24,3.8185979503205854e-24
631.4935381062855,4.6547963904339234e-24,3.905614941260244e-24,3.879897595345403e-24
634.6990890611398,4.6120814896478885e-24,4.130411357070561e-24,4.0870366816188235e-24
637.904640015994,4.570746072634639e-24,4.446052326145873e-24,4.3677763663468415e-24
641.1101909708482,4.5304358779738665e-24,4.724133216846791e-24,4.617879099701179e-24
644.3157419257025,4.491342012389121e-24,4.8671459127114175e-24,4.744441073774845e-24
647.5212928805568,4.453146516985935e-24,4.851224770315183e-24,4.728178578976825e-24
650.7268438354109,4.416266708299648e-24,4.723819501563591e-24,4.611271134094724e-24
653.9323947902652,4.380283424796176e-24,4.5489003469791414e-24,4.4503074444542344e-24
657.1379457451195,4.345413413124386e-24,4.346273605993651e-24,4.2645365210640655e-24
660.3434966999737,4.311254085355619e-24,4.1227142166339106e-24,4.058917908078271e-24
663.549047654828,4.278359564336237e-24,3.900803736689489e-24,3.857687008103943e-24
666.7545986096823,4.2464059259287835e-24,3.742433934102216e-24,3.708946808518435e-24
669.9601495645364,4.215291870673928e-24,3.719515390259714e-24,3.680554905039183e-24
673.1657005193907,4.1850503285558564e-24,3.867506616835157e-24,3.801444013929855e-24
676.3712514742449,4.155799552799424e-24,4.151717940287297e-24,4.040728356078559e-24
679.5768024290991,4.127450144067463e-24,4.4837918358775566e-24,4.326045311867673e-24
682.7823533839534,4.0998578655848896e-24,4.7816308792173915e-24,4.5852915709577465e-24
685.9879043388077,4.073066496993382e-24,4.995242883708062e-24,4.770123073414926e-24
689.1934552936618,4.0472426422326314e-24,5.102305382796468e-24,4.8684452026166735e-24
692.3990062485161,4.022123977215738e-24,5.163738275344354e-24,4.917288612155055e-24
695.6045572033704,3.9978781385618495e-24,5.2481952775037095e-24,4.9781793677101545e-24
698.8101081582246,3.9743950635963515e-24,5.377122651104204e-24,5.070618120431249e-24
702.0156591130789,3.951553438761044e-24,5.5031876119657266e-24,5.1605340195770106e-24
705.2212100679332,3.9296519439310444e-24,5.58731103196292e-24,5.2184751547673036e-24
708.4267610227873,3.908297898515126e-24,5.665724343682833e-24,5.268991383247966e-24
711.6323119776415,3.887770392625138e-24,5.7627787195620384e-24,5.339618480063028e-24
714.8378629324958,3.8680913317575305e-24,5.858032532205886e-24,5.4264485984098116e-24
718.0434138873499,3.848910226974413e-24,5.867255892583178e-24,5.453902284508333e-24
721.2489648422043,3.8304328160202234e-24,5.7556999043132684e-24,5.3912732538126655e-24
724.4545157970585,3.812697364984713e-24,5.456238622406409e-24,5.171746313178488e-24
727.6600667519126,3.795723129551143e-24,4.897126146264705e-24,4.7299139092858836e-24
730.865617706767,3.779266186406912e-24,4.125779340922431e-24,4.087726819654599e-24
734.0711686616213,3.7636128402321204e-24,3.315106296823955e-24,3.388549634431953e-24
737.2767196164754,3.748513644868769e-24,2.6679699241708396e-24,2.8208921322272546e-24
740.4822705713298,3.733985333835763e-24,2.2734948945175126e-24,2.451579170472813e-24
743.687821526184,3.720238094967021e-24,2.1151502180781076e-24,2.276904419115111e-24
746.893372481038,3.706878974110792e-24,2.084547385309785e-24,2.2274684346262323e-24
750.0989234358924,3.694416484120984e-24,2.083457516422056e-24,2.205316080033635e-24
753.3044743907467,3.682387136268265e-24,2.2136749571754068e-24,2.2982536372314873e-24
756.510025345601,3.671023014180671e-24,2.3337444279601286e-24,2.3792968480598544e-24
759.7155763004552,3.660232538555342e-24,2.5790553137971676e-24,2.5654216441746728e-24
762.9211272553094,3.65002799519462e-24,2.891863172235179e-24,2.8032791121347108e-24
766.1266782101637,3.6403235607766456e-24,3.1346340797611965e-24,2.965326023508255e-24
769.3322291650179,3.631328068559974e-24,3.395660054228531e-24,3.1772751901450017e-24
772.5377801198722,3.622774542969385e-24,3.68388845672254e-24,3.402855200741456e-24
775.7433310747265,3.614925553519706e-24,3.7793157249406564e-24,3.48380127802412e-24
778.9488820295807,3.6076127212180286e-24,4.074644940193746e-24,3.745656262851125e-24
782.154432984435,3.6007172948057164e-24,3.979737399927245e-24,3.694006349666016e-24
785.3599839392892,3.594667261361047e-24,3.5876210180139714e-24,3.448764896355149e-24
788.5655348941433,3.588739264855866e-24,3.8377980643825785e-24,3.733748390143033e-24
791.7710858489976,3.583751062460404e-24,3.2850168593093783e-24,3.3081208387578704e-24
794.9766368038518,3.579389231183903e-24,3.261938621382295e-24,3.2839339768924817e-24
798.182187758706,3.575107875136875e-24,2.7789960906645383e-24,2.8475393647898525e-24
801.3877387135603,3.571684634657476e-24,3.2486303019145485e-24,3.2612587080199468e-24
804.5932896684145,3.568418527958408e-24,2.5874527658742133e-24,2.7038798276274532e-24
807.7988406232688,3.566397397591381e-24,2.4729311614753858e-24,2.5411242377955377e-24
811.0043915781231,3.564376842127271e-24,4.260716931831114e-24,4.110622580225761e-24
814.2099425329773,3.563755249654786e-24,4.032758990738464e-24,3.9905394443438056e-24
817.4154934878316,3.562201500258521e-24,3.006421506275686e-24,3.115409467125017e-24
